Sat Oct 29 11:45:20 2022,Experiment LED arduino 33IoT
time(s),Vinput(V),V0,V1,V2
0.006891965866088867,0,0.14,0.01,0.0
0.012401819229125977,0,0.05,0.01,0.0
0.01775979995727539,1,0.13,0.03,0.0
0.023478031158447266,2,0.06,0.0,0.0
0.028793811798095703,3,0.18,0.01,0.0
0.034120798110961914,4,0.16,0.02,0.0
0.03937196731567383,5,0.18,0.01,0.0
0.044676780700683594,6,0.16,0.01,0.0
0.049928903579711914,7,0.17,0.02,0.03
0.055182695388793945,8,0.18,0.01,0.0
0.06052398681640625,9,0.18,0.02,0.0
0.06586170196533203,10,0.18,0.02,0.0
0.07120370864868164,11,0.18,0.03,0.0
0.07656383514404297,12,0.15,0.03,0.0
0.0819098949432373,13,0.19,0.04,0.0
0.08728694915771484,13,0.18,0.03,0.0
0.0926518440246582,14,0.19,0.04,0.01
0.09807896614074707,15,0.18,0.04,0.0
0.10342192649841309,16,0.2,0.05,0.0
0.10871601104736328,17,0.18,0.05,0.0
0.1140127182006836,18,0.17,0.05,0.08
0.11943173408508301,19,0.2,0.05,0.0
0.1250019073486328,20,0.21,0.05,0.0
0.13019084930419922,21,0.24,0.05,0.0
0.135361909866333,22,0.18,0.06,0.0
0.14096379280090332,23,0.23,0.06,0.0
0.1462850570678711,24,0.2,0.08,0.0
0.1514749526977539,25,0.23,0.07,0.03
0.15697884559631348,26,0.21,0.08,0.0
0.16231393814086914,26,0.21,0.07,0.0
0.16761183738708496,27,0.23,0.08,0.0
0.1728529930114746,28,0.23,0.09,0.0
0.178114652633667,29,0.25,0.09,0.0
0.18335270881652832,30,0.24,0.09,0.0
0.1887059211730957,31,0.22,0.09,0.0
0.19399762153625488,32,0.24,0.09,0.0
0.19924497604370117,33,0.24,0.09,0.0
0.20447373390197754,34,0.25,0.1,0.0
0.20990777015686035,35,0.24,0.08,0.0
0.21545171737670898,36,0.23,0.11,0.0
0.22091889381408691,37,0.25,0.11,0.0
0.22636079788208008,38,0.23,0.11,0.0
0.23172783851623535,39,0.25,0.12,0.0
0.2371058464050293,40,0.25,0.11,0.0
0.24250078201293945,40,0.26,0.12,0.0
0.2479248046875,41,0.27,0.13,0.0
0.2532930374145508,42,0.28,0.13,0.0
0.2587168216705322,43,0.25,0.13,0.0
0.26407480239868164,44,0.24,0.12,0.0
0.2694118022918701,45,0.29,0.14,0.02
0.27472567558288574,46,0.26,0.14,0.0
0.2801089286804199,47,0.26,0.15,0.0
0.28551387786865234,48,0.25,0.15,0.0
0.29103779792785645,49,0.29,0.15,0.0
0.2962837219238281,50,0.3,0.15,0.0
0.3016817569732666,51,0.29,0.16,0.0
0.30683279037475586,52,0.29,0.16,0.04
0.3122727870941162,53,0.28,0.17,0.0
0.3174607753753662,53,0.31,0.16,0.01
0.32271671295166016,54,0.31,0.17,0.0
0.32799482345581055,55,0.28,0.17,0.0
0.3332068920135498,56,0.32,0.17,0.0
0.3383159637451172,57,0.33,0.17,0.0
0.34348392486572266,58,0.32,0.18,0.0
0.3488597869873047,59,0.32,0.18,0.0
0.35403895378112793,60,0.33,0.19,0.0
0.3591957092285156,61,0.29,0.18,0.0
0.364398717880249,62,0.32,0.23,0.0
0.36970067024230957,63,0.32,0.17,0.0
0.3748767375946045,64,0.33,0.21,0.0
0.3801238536834717,65,0.34,0.2,0.0
0.3852498531341553,66,0.34,0.2,0.01
0.390516996383667,67,0.34,0.2,0.0
0.3958117961883545,67,0.33,0.21,0.0
0.4010498523712158,68,0.32,0.21,0.0
0.4062807559967041,69,0.35,0.21,0.0
0.4116239547729492,70,0.34,0.23,0.0
0.41680097579956055,71,0.35,0.22,0.0
0.42203688621520996,72,0.35,0.25,0.0
0.4273977279663086,73,0.34,0.23,0.0
0.4327998161315918,74,0.35,0.23,0.0
0.4380068778991699,75,0.36,0.24,0.0
0.4433720111846924,76,0.37,0.24,0.0
0.4488246440887451,77,0.39,0.25,0.08
0.4539906978607178,78,0.37,0.24,0.0
0.4593689441680908,79,0.37,0.25,0.0
0.46466684341430664,80,0.38,0.25,0.0
0.4698057174682617,80,0.35,0.23,0.0
0.475186824798584,81,0.35,0.25,0.0
0.48045778274536133,82,0.37,0.25,0.0
0.485645055770874,83,0.35,0.24,0.0
0.4909360408782959,84,0.37,0.26,0.0
0.4965348243713379,85,0.37,0.26,0.0
0.5017547607421875,86,0.39,0.27,0.0
0.5072088241577148,87,0.4,0.25,0.0
0.512488842010498,88,0.4,0.27,0.0
0.5179269313812256,89,0.41,0.29,0.0
0.5233347415924072,90,0.37,0.29,0.01
0.5284810066223145,91,0.38,0.29,0.0
0.5336928367614746,92,0.39,0.29,0.0
0.5391898155212402,93,0.43,0.29,0.02
0.5443367958068848,94,0.39,0.29,0.0
0.5498228073120117,94,0.38,0.29,0.0
0.5552108287811279,95,0.38,0.29,0.0
0.5606968402862549,96,0.4,0.3,0.0
0.5661039352416992,97,0.42,0.3,0.0
0.571408748626709,98,0.41,0.31,0.0
0.5768177509307861,99,0.4,0.31,0.0
0.5822877883911133,100,0.43,0.33,0.04
0.5879087448120117,101,0.44,0.32,0.0
0.5932197570800781,102,0.38,0.32,0.0
0.5987517833709717,103,0.42,0.33,0.0
0.6043577194213867,104,0.45,0.32,0.01
0.6097638607025146,105,0.44,0.34,0.0
0.6152617931365967,106,0.45,0.33,0.0
0.6208198070526123,107,0.44,0.34,0.0
0.6262037754058838,107,0.45,0.32,0.0
0.6315429210662842,108,0.46,0.34,0.0
0.6369938850402832,109,0.42,0.33,0.0
0.6422288417816162,110,0.45,0.34,0.0
0.6476428508758545,111,0.47,0.35,0.0
0.6530148983001709,112,0.43,0.35,0.0
0.6584818363189697,113,0.47,0.37,0.0
0.664036750793457,114,0.47,0.37,0.0
0.6693878173828125,115,0.44,0.36,0.0
0.6751177310943604,116,0.43,0.37,0.0
0.6804459095001221,117,0.48,0.36,0.0
0.6857547760009766,118,0.48,0.37,0.0
0.6911358833312988,119,0.46,0.38,0.0
0.6966378688812256,120,0.49,0.37,0.0
0.7018349170684814,121,0.47,0.38,0.0
0.7071490287780762,121,0.5,0.35,0.0
0.7123918533325195,122,0.49,0.38,0.0
0.7179818153381348,123,0.51,0.39,0.0
0.723660945892334,124,0.47,0.39,0.0
0.7291548252105713,125,0.5,0.4,0.0
0.7347109317779541,126,0.51,0.4,0.0
0.7401249408721924,127,0.51,0.4,0.0
0.745722770690918,128,0.49,0.4,0.0
0.7510228157043457,129,0.53,0.41,0.0
0.7566487789154053,130,0.45,0.41,0.0
0.7620358467102051,131,0.5,0.42,0.0
0.7675309181213379,132,0.5,0.41,0.0
0.7731077671051025,133,0.51,0.42,0.0
0.7786159515380859,134,0.51,0.43,0.0
0.7841029167175293,134,0.54,0.42,0.0
0.7895338535308838,135,0.53,0.43,0.0
0.79498291015625,136,0.53,0.43,0.0
0.8003556728363037,137,0.52,0.44,0.0
0.8057279586791992,138,0.51,0.44,0.0
0.8111879825592041,139,0.54,0.44,0.0
0.8165197372436523,140,0.55,0.44,0.0
0.8219938278198242,141,0.52,0.45,0.0
0.8274807929992676,142,0.55,0.45,0.0
0.8328807353973389,143,0.55,0.44,0.0
0.8382446765899658,144,0.56,0.44,0.0
0.8437178134918213,145,0.56,0.46,0.0
0.8490569591522217,146,0.53,0.46,0.0
0.8544497489929199,147,0.5,0.46,0.0
0.8599169254302979,148,0.55,0.5,0.0
0.8652999401092529,148,0.55,0.47,0.0
0.8706827163696289,149,0.56,0.47,0.0
0.8760960102081299,150,0.57,0.47,0.0
0.8814430236816406,151,0.58,0.48,0.0
0.8868649005889893,152,0.56,0.48,0.0
0.892338752746582,153,0.57,0.48,0.0
0.897688627243042,154,0.58,0.49,0.0
0.9031758308410645,155,0.57,0.49,0.0
0.9088637828826904,156,0.59,0.49,0.07
0.9143867492675781,157,0.56,0.48,0.0
0.919846773147583,158,0.6,0.5,0.0
0.9253578186035156,159,0.56,0.5,0.0
0.930966854095459,160,0.6,0.51,0.0
0.936384916305542,161,0.58,0.49,0.0
0.9418008327484131,161,0.57,0.48,0.0
0.9473237991333008,162,0.6,0.49,0.0
0.9528498649597168,163,0.61,0.51,0.0
0.9583280086517334,164,0.59,0.53,0.0
0.9638388156890869,165,0.61,0.51,0.0
0.9694318771362305,166,0.63,0.52,0.0
0.974923849105835,167,0.58,0.54,0.0
0.9804937839508057,168,0.64,0.53,0.01
0.9858527183532715,169,0.62,0.54,0.0
0.9913280010223389,170,0.6,0.53,0.0
0.996776819229126,171,0.64,0.53,0.0
1.0020778179168701,172,0.63,0.54,0.0
1.007490634918213,173,0.63,0.55,0.0
1.0133450031280518,174,0.63,0.56,0.02
1.0187547206878662,175,0.65,0.55,0.0
1.0241899490356445,175,0.62,0.56,0.0
1.0294189453125,176,0.65,0.56,0.0
1.0347037315368652,177,0.65,0.56,0.0
1.0399987697601318,178,0.64,0.56,0.0
1.045408010482788,179,0.64,0.56,0.0
1.0507688522338867,180,0.65,0.54,0.0
1.056147813796997,181,0.65,0.56,0.0
1.0615198612213135,182,0.65,0.57,0.0
1.0669827461242676,183,0.66,0.58,0.0
1.0723557472229004,184,0.65,0.59,0.0
1.0779478549957275,185,0.67,0.59,0.0
1.0834269523620605,186,0.68,0.59,0.0
1.0887458324432373,187,0.65,0.6,0.0
1.094031810760498,188,0.66,0.6,0.0
1.0994899272918701,188,0.65,0.6,0.0
1.1050808429718018,189,0.65,0.59,0.0
1.110522747039795,190,0.69,0.61,0.0
1.1160130500793457,191,0.69,0.6,0.0
1.1215946674346924,192,0.7,0.61,0.0
1.1270687580108643,193,0.69,0.69,0.0
1.1324689388275146,194,0.7,0.62,0.0
1.138274908065796,195,0.7,0.6,0.0
1.1439616680145264,196,0.68,0.62,0.0
1.1493728160858154,197,0.71,0.64,0.0
1.1550908088684082,198,0.69,0.63,0.0
1.1604418754577637,199,0.72,0.63,0.0
1.1659157276153564,200,0.69,0.64,0.0
1.171433925628662,201,0.7,0.63,0.0
1.1770360469818115,202,0.74,0.64,0.0
1.1825180053710938,202,0.71,0.65,0.0
1.188107967376709,203,0.72,0.65,0.0
1.193528652191162,204,0.71,0.65,0.0
1.1989459991455078,205,0.73,0.65,0.0
1.204366683959961,206,0.74,0.65,0.0
1.2098517417907715,207,0.72,0.66,0.0
1.2154018878936768,208,0.74,0.66,0.0
1.2209599018096924,209,0.74,0.67,0.0
1.2263908386230469,210,0.75,0.66,0.0
1.2319738864898682,211,0.74,0.67,0.0
1.2374787330627441,212,0.71,0.67,0.0
1.2429728507995605,213,0.71,0.67,0.0
1.248443841934204,214,0.76,0.73,0.0
1.2540478706359863,215,0.75,0.7,0.0
1.259504795074463,215,0.76,0.67,0.0
1.2649877071380615,216,0.74,0.69,0.0
1.2701959609985352,217,0.74,0.69,0.0
1.2756149768829346,218,0.77,0.69,0.0
1.2809247970581055,219,0.75,0.7,0.0
1.286374807357788,220,0.78,0.69,0.0
1.291881799697876,221,0.78,0.7,0.0
1.2973368167877197,222,0.74,0.71,0.0
1.3026208877563477,223,0.74,0.71,0.0
1.3078489303588867,224,0.77,0.71,0.0
1.3131718635559082,225,0.78,0.72,0.0
1.3184089660644531,226,0.77,0.72,0.0
1.3238530158996582,227,0.78,0.73,0.0
1.329300880432129,228,0.77,0.72,0.0
1.3347148895263672,229,0.8,0.73,0.0
1.3399639129638672,229,0.8,0.72,0.0
1.3453419208526611,230,0.79,0.73,0.05
1.350733757019043,231,0.84,0.73,0.0
1.356015682220459,232,0.83,0.74,0.0
1.361522912979126,233,0.81,0.74,0.0
1.3668909072875977,234,0.78,0.75,0.0
1.3722798824310303,235,0.81,0.75,0.01
1.377624750137329,236,0.79,0.75,0.0
1.3830749988555908,237,0.83,0.75,0.0
1.3886618614196777,238,0.83,0.76,0.0
1.3941888809204102,239,0.82,0.76,0.0
1.399559736251831,240,0.83,0.75,0.01
1.405045986175537,241,0.83,0.76,0.0
1.410505771636963,242,0.83,0.77,0.0
1.4159526824951172,242,0.82,0.77,0.0
1.421536922454834,243,0.82,0.78,0.0
1.4270257949829102,244,0.81,0.78,0.02
1.432318925857544,245,0.84,0.78,0.0
1.4377269744873047,246,0.83,0.78,0.0
1.4432058334350586,247,0.85,0.76,0.0
1.448728084564209,248,0.84,0.77,0.0
1.454300880432129,249,0.85,0.79,0.0
1.4598588943481445,250,0.86,0.8,0.0
1.465240716934204,251,0.85,0.8,0.0
1.4707069396972656,252,0.85,0.8,0.0
1.4761857986450195,253,0.86,0.81,0.0
1.4817509651184082,254,0.84,0.81,0.01
1.487156867980957,255,0.85,0.81,0.0
1.4926788806915283,256,0.86,0.82,0.0
1.4984030723571777,256,0.86,0.83,0.0
1.5039968490600586,257,0.85,0.82,0.0
1.5098328590393066,258,0.88,0.82,0.0
1.5157439708709717,259,0.89,0.82,0.0
1.5213158130645752,260,0.86,0.83,0.0
1.526761770248413,261,0.86,0.82,0.0
1.5331807136535645,262,0.88,0.84,0.01
1.5387787818908691,263,0.9,0.84,0.0
1.5443120002746582,264,0.88,0.84,0.0
1.549738883972168,265,0.89,0.85,0.0
1.5554468631744385,266,0.9,0.84,0.0
1.561011791229248,267,0.91,0.85,0.0
1.5667860507965088,268,0.91,0.86,0.0
1.5722486972808838,269,0.92,0.85,0.0
1.5777599811553955,269,0.9,0.85,0.0
1.583064079284668,270,0.91,0.86,0.0
1.5886778831481934,271,0.9,0.86,0.0
1.5939908027648926,272,0.92,0.87,0.0
1.599565029144287,273,0.93,0.86,0.0
1.6048979759216309,274,0.93,0.88,0.0
1.610217809677124,275,0.91,0.87,0.0
1.6156799793243408,276,0.89,0.88,0.0
1.6210758686065674,277,0.92,0.88,0.0
1.6263659000396729,278,0.89,0.86,0.01
1.631781816482544,279,0.94,0.89,0.0
1.6371607780456543,280,0.93,0.9,0.0
1.6426680088043213,281,0.92,0.89,0.0
1.6480350494384766,282,0.95,0.88,0.03
1.6533498764038086,282,0.91,0.9,0.0
1.6588027477264404,283,0.96,0.9,0.0
1.6641569137573242,284,0.95,0.91,0.0
1.6693878173828125,285,0.95,0.91,0.0
1.6747407913208008,286,0.95,0.91,0.0
1.680022954940796,287,0.93,0.91,0.0
1.6853396892547607,288,0.96,0.92,0.0
1.6906988620758057,289,0.95,0.92,0.0
1.6960399150848389,290,0.97,0.93,0.0
1.7014069557189941,291,0.97,0.93,0.0
1.7069408893585205,292,0.99,0.94,0.0
1.71232271194458,293,0.98,0.93,0.0
1.717714786529541,294,0.96,0.94,0.0
1.723134994506836,295,0.96,0.95,0.0
1.7285988330841064,296,0.97,0.95,0.0
1.7341687679290771,296,0.98,0.94,0.0
1.739691972732544,297,0.99,0.95,0.0
1.745110034942627,298,0.95,0.95,0.0
1.7506117820739746,299,0.99,0.96,0.0
1.756091833114624,300,0.99,0.95,0.0
1.7614939212799072,301,1.0,0.96,0.0
1.7667839527130127,302,1.01,0.97,0.0
1.7720887660980225,303,0.96,0.97,0.0
1.7773230075836182,304,0.99,0.97,0.0
1.782701015472412,305,1.0,0.97,0.0
1.7880640029907227,306,1.01,0.97,0.0
1.793393850326538,307,0.96,0.97,0.0
1.798736810684204,308,1.02,0.98,0.05
1.804109811782837,309,1.02,0.98,0.01
1.8095958232879639,309,1.0,0.99,0.0
1.815079927444458,310,1.01,0.97,0.0
1.82033371925354,311,1.04,0.99,0.0
1.82566499710083,312,1.03,0.97,0.0
1.831035852432251,313,1.01,1.0,0.0
1.836397647857666,314,1.03,1.0,0.0
1.8418056964874268,315,1.04,1.0,0.0
1.8470137119293213,316,1.05,1.01,0.0
1.852280616760254,317,1.01,1.01,0.04
1.8576538562774658,318,1.03,1.02,0.0
1.862987995147705,319,1.03,1.02,0.0
1.8683488368988037,320,1.05,1.02,0.0
1.873741626739502,321,1.06,1.03,0.0
1.879044771194458,322,1.04,1.03,0.0
1.8843588829040527,323,1.07,1.03,0.0
1.890185832977295,323,1.05,1.03,0.02
1.8959097862243652,324,1.08,1.04,0.0
1.9015297889709473,325,1.07,1.03,0.0
1.9070279598236084,326,1.08,1.04,0.0
1.912498950958252,327,1.07,1.04,0.0
1.9180526733398438,328,1.05,1.05,0.0
1.9237158298492432,329,1.08,1.05,0.0
1.9290437698364258,330,1.09,1.06,0.0
1.9344968795776367,331,1.08,1.06,0.0
1.9400408267974854,332,1.06,1.04,0.0
1.9458038806915283,333,1.08,1.04,0.0
1.9513678550720215,334,1.1,1.07,0.0
1.9568467140197754,335,1.09,1.07,0.0
1.9624240398406982,336,1.1,1.07,0.0
1.9678988456726074,336,1.1,1.08,0.0
1.973564863204956,337,1.09,1.07,0.0
1.9791407585144043,338,1.1,1.06,0.0
1.98465895652771,339,1.12,1.06,0.0
1.9902808666229248,340,1.1,1.09,0.0
1.9958786964416504,341,1.13,1.09,0.0
2.001497745513916,342,1.09,1.1,0.0
2.007030963897705,343,1.15,1.09,0.0
2.012666702270508,344,1.13,1.1,0.0
2.0181779861450195,345,1.11,1.11,0.0
2.023610830307007,346,1.12,1.1,0.0
2.0291218757629395,347,1.11,1.11,0.0
2.0346176624298096,348,1.14,1.11,0.0
2.0401368141174316,349,1.11,1.12,0.0
2.045693874359131,350,1.14,1.11,0.0
2.0511927604675293,350,1.13,1.12,0.0
2.0567538738250732,351,1.13,1.13,0.0
2.0622498989105225,352,1.13,1.12,0.0
2.067577838897705,353,1.15,1.13,0.0
2.073065996170044,354,1.14,1.13,0.0
2.0785467624664307,355,1.14,1.14,0.0
2.0839626789093018,356,1.13,1.15,0.0
2.0893056392669678,357,1.14,1.14,0.0
2.0946807861328125,358,1.11,1.15,0.0
2.0999836921691895,359,1.15,1.15,0.0
2.1052908897399902,360,1.14,1.15,0.0
2.110616683959961,361,1.15,1.15,0.0
2.115898847579956,362,1.17,1.15,0.0
2.1212427616119385,363,1.14,1.16,0.0
2.126523733139038,363,1.15,1.17,0.0
2.1318938732147217,364,1.16,1.16,0.0
2.137204885482788,365,1.16,1.17,0.0
2.14241361618042,366,1.15,1.17,0.0
2.147930860519409,367,1.17,1.18,0.0
2.1531848907470703,368,1.22,1.18,0.0
2.1584668159484863,369,1.15,1.17,0.0
2.163848876953125,370,1.17,1.17,0.0
2.169142007827759,371,1.18,1.19,0.05
2.1747026443481445,372,1.17,1.19,0.0
2.1800849437713623,373,1.17,1.19,0.0
2.1852757930755615,374,1.18,1.2,0.0
2.190664768218994,375,1.17,1.23,0.0
2.1960668563842773,376,1.16,1.22,0.0
2.201467752456665,377,1.16,1.2,0.0
2.206831693649292,377,1.18,1.21,0.0
2.212228775024414,378,1.16,1.21,0.0
2.2174477577209473,379,1.18,1.2,0.07
2.222895860671997,380,1.18,1.22,0.0
2.228257894515991,381,1.19,1.22,0.0
2.2338178157806396,382,1.19,1.23,0.0
2.239426612854004,383,1.19,1.23,0.0
2.245008707046509,384,1.18,1.22,0.0
2.250417709350586,385,1.19,1.24,0.0
2.2556278705596924,386,1.19,1.24,0.0
2.2608330249786377,387,1.18,1.24,0.0
2.2662508487701416,388,1.23,1.24,0.0
2.271634817123413,389,1.18,1.25,0.0
2.2770018577575684,390,1.19,1.25,0.0
2.282437801361084,390,1.2,1.25,0.0
2.287728786468506,391,1.19,1.25,0.0
2.2932968139648438,392,1.19,1.25,0.0
2.2988457679748535,393,1.2,1.26,0.0
2.3041999340057373,394,1.2,1.26,0.0
2.3096797466278076,395,1.2,1.26,0.0
2.315086841583252,396,1.2,1.26,0.0
2.320406913757324,397,1.2,1.26,0.0
2.3257999420166016,398,1.19,1.27,0.0
2.331373691558838,399,1.19,1.28,0.0
2.3368477821350098,400,1.19,1.28,0.0
2.3423197269439697,401,1.23,1.28,0.0
2.3476977348327637,402,1.2,1.29,0.0
2.3531908988952637,403,1.2,1.29,0.0
2.358613967895508,404,1.2,1.28,0.01
2.3640329837799072,404,1.2,1.29,0.0
2.369565963745117,405,1.19,1.29,0.0
2.3750200271606445,406,1.2,1.3,0.0
2.3803329467773438,407,1.21,1.31,0.0
2.3856208324432373,408,1.2,1.31,0.02
2.390868902206421,409,1.21,1.31,0.0
2.396127939224243,410,1.21,1.33,0.0
2.401467800140381,411,1.2,1.31,0.0
2.4070310592651367,412,1.21,1.32,0.01
2.412667751312256,413,1.2,1.32,0.0
2.4181907176971436,414,1.25,1.33,0.0
2.4236059188842773,415,1.2,1.33,0.0
2.429199695587158,416,1.21,1.33,0.01
2.4347100257873535,417,1.2,1.34,0.0
2.4401767253875732,417,1.21,1.33,0.0
2.4455809593200684,418,1.21,1.34,0.0
2.451051950454712,419,1.2,1.35,0.0
2.4566128253936768,420,1.2,1.34,0.0
2.4620909690856934,421,1.21,1.35,0.0
2.4676218032836914,422,1.21,1.35,0.0
2.473193883895874,423,1.21,1.36,0.0
2.478705883026123,424,1.21,1.35,0.0
2.4841418266296387,425,1.21,1.36,0.0
2.489799737930298,426,1.2,1.36,0.0
2.495299816131592,427,1.21,1.36,0.0
2.5007948875427246,428,1.21,1.34,0.0
2.506281852722168,429,1.21,1.37,0.0
2.511896848678589,430,1.21,1.37,0.0
2.5174336433410645,431,1.21,1.37,0.0
2.523204803466797,431,1.21,1.37,0.0
2.5290558338165283,432,1.22,1.38,0.0
2.5346009731292725,433,1.21,1.39,0.0
2.540173053741455,434,1.2,1.43,0.0
2.545912027359009,435,1.2,1.4,0.0
2.5514638423919678,436,1.21,1.4,0.0
2.5571939945220947,437,1.21,1.46,0.0
2.5627827644348145,438,1.2,1.4,0.0
2.5684988498687744,439,1.2,1.41,0.0
2.574070930480957,440,1.21,1.41,0.0
2.579702854156494,441,1.2,1.42,0.0
2.585439920425415,442,1.2,1.41,0.0
2.5911669731140137,443,1.22,1.41,0.0
2.5968918800354004,444,1.22,1.42,0.0
2.6025006771087646,444,1.21,1.42,0.0
2.6080758571624756,445,1.19,1.43,0.0
2.613849639892578,446,1.21,1.43,0.01
2.6195976734161377,447,1.23,1.43,0.0
2.6254489421844482,448,1.21,1.43,0.0
2.6310887336730957,449,1.2,1.43,0.0
2.6368188858032227,450,1.21,1.44,0.0
2.6424758434295654,451,1.22,1.44,0.0
2.648207664489746,452,1.21,1.45,0.0
2.6539719104766846,453,1.22,1.45,0.0
2.65975284576416,454,1.2,1.45,0.0
2.6663217544555664,455,1.21,1.46,0.0
2.67189884185791,456,1.21,1.46,0.0
2.6789307594299316,457,1.21,1.47,0.0
2.688107967376709,458,1.22,1.46,0.0
2.6940999031066895,458,1.22,1.46,0.0
2.6998767852783203,459,1.21,1.47,0.0
2.7068827152252197,460,1.2,1.47,0.05
2.712448835372925,461,1.22,1.47,0.0
2.7181360721588135,462,1.2,1.48,0.0
2.7237229347229004,463,1.21,1.48,0.0
2.7304527759552,464,1.21,1.49,0.0
2.7387356758117676,465,1.2,1.48,0.0
2.744277000427246,466,1.21,1.49,0.0
2.7498607635498047,467,1.21,1.53,0.0
2.75575590133667,468,1.2,1.5,0.0
2.761483907699585,469,1.21,1.5,0.0
2.767437696456909,470,1.2,1.5,0.0
2.7733309268951416,471,1.22,1.51,0.0
2.780194044113159,471,1.21,1.51,0.0
2.7858548164367676,472,1.21,1.51,0.0
2.7915518283843994,473,1.21,1.51,0.0
2.797318696975708,474,1.21,1.51,0.0
2.8036978244781494,475,1.21,1.52,0.0
2.8105390071868896,476,1.21,1.53,0.0
2.816361904144287,477,1.21,1.53,0.0
2.823284864425659,478,1.21,1.53,0.0
2.8292059898376465,479,1.21,1.54,0.0
2.8353939056396484,480,1.2,1.54,0.0
2.841404914855957,481,1.21,1.54,0.0
2.847153902053833,482,1.19,1.55,0.01
2.8526978492736816,483,1.21,1.55,0.0
2.858151912689209,484,1.19,1.55,0.0
2.864177703857422,485,1.21,1.55,0.0
2.8707969188690186,485,1.21,1.55,0.0
2.8769426345825195,486,1.21,1.55,0.0
2.883347988128662,487,1.2,1.56,0.0
2.889246940612793,488,1.21,1.56,0.0
2.8953778743743896,489,1.2,1.55,0.01
2.9013278484344482,490,1.21,1.57,0.0
2.908834934234619,491,1.2,1.57,0.0
2.9147098064422607,492,1.21,1.57,0.0
2.9211230278015137,493,1.21,1.58,0.0
2.926978826522827,494,1.2,1.57,0.0
2.9328997135162354,495,1.2,1.58,0.0
2.9415769577026367,496,1.21,1.57,0.0
2.947377920150757,497,1.21,1.59,0.01
2.953005790710449,498,1.21,1.6,0.0
2.9586076736450195,498,1.21,1.59,0.0
2.964223861694336,499,1.21,1.6,0.0
2.9705159664154053,500,1.21,1.6,0.03
2.976217746734619,501,1.21,1.6,0.0
2.982316017150879,502,1.2,1.6,0.0
2.9882407188415527,503,1.21,1.61,0.0
2.9940617084503174,504,1.22,1.61,0.0
3.000635862350464,505,1.21,1.61,0.0
3.00669002532959,506,1.24,1.62,0.0
3.012697696685791,507,1.24,1.63,0.0
3.018638849258423,508,1.23,1.62,0.0
